;RAW4.00
[RawHeader]
Date=04/03/2025
EstimatedTotalTime=1790.13
FurtherDQLReading=0
HardwareIndicator=65519
MeasuredTotalTime=1790.13
MeasurementFlag=1
NumberOfMeasuredRanges=1
NumberOfRanges=1
Time=14:24:19

[VarInfo]
Type=USER
Flags=0
Value=Lab Manager

[VarInfo]
Type=SAMPLEID
Flags=0
Value=Commander Sample ID

[VarInfo]
Type=COMMENT
Flags=0
Value=

[VarInfo]
Type=UTF
Flags=0
Value=

[VarInfo]
Type=CREATOR
Flags=0
Value=BrmlToV4Converter

[VarInfo]
Type=CREATOR_VERSION
Flags=0
Value=6.5.0.0

[HardwareConfiguration]
AbsorptionFactor=9999
ActivateAbsorber=0
Alpha1=1.5406
Alpha2=1.54439
AlphaAverage=1.5418
AlphaRatio=0.5
Analyzer=0
Anode=Cu
AntiScatteringSlit=10.5
BeamOpticsFlags=0
Beta=1.39222
BetaRelativeIntensity=0
DeactivateAbsorber=0
DetectorSlit=9999
DivergenceSlit=9999
GoniometerControl=0
GoniometerDiameter=560
GoniometerModel=512
GoniometerStage=0
Monochromator=0
NearSampleSlit=9999
PrimarySollerSlit=9999
SampleChanger=0
SecondSollerSlit=2.5
SynchronousAxis=0
ThinFilmAttachment=9999
WaveUnit=A

[RangeHeader]
ActuallyUsedLambda=1.5418
AdditionalDetectorMask=257
DataRecordLength=4
DelayTime=0
DisplayPlaneNumber=0
EstimatedScanTime=1790
ExtraParametersMask=0
GeneratorCurrent=40
GeneratorVoltage=40
Increment=0.0204639
Increment3=0
NumberOfCompletedData=3422
NumberOfCounts=1
NumberOfDetectors=0
NumberOfDrives=2
NumberOfEncoderDrives=0
NumberOfMeasuredData=3422
NumberOfVaryingParameters=0
RangeStartTime=0
RotationSpeed=0
ScanMode=1
ScanType=Locked Coupled
SimulatedMeasConditions=0
SlitChangerIn=0
SmootingWidth=0
Start=10.0001
Steps=3422
SynchronousRotation=0
Time=94.5

[VarInfo]
Type=PSD_DISCRIM
Flags=0
Value=0.11;0.25

[PSD]
ActualTwoTheta=9999
FirstUsedChannel=0
FixedPSD=0
PSDOpening=2.90076
PSDType=5

[Drive]
DriveFlags=1
DriveName=2Theta
DriveNumber=2
DriveOffset=0
OffsetIndex=0
OscillationAmplitude=0
OscillationSpeed=0
StartPosition=10.0001

[Drive]
DriveFlags=1
DriveName=Theta
DriveNumber=1
DriveOffset=0
OffsetIndex=0
OscillationAmplitude=0
OscillationSpeed=0
StartPosition=5.00005

[Data]
     Angle,       PSD,
   10.0001,      1836,
   10.0206,      1784,
    10.041,      1907,
   10.0615,      1841,
    10.082,      1795,
   10.1024,      1823,
   10.1229,      1854,
   10.1433,      1922,
   10.1638,      1850,
   10.1843,      1796,
   10.2047,      1808,
   10.2252,      1837,
   10.2457,      1736,
   10.2661,      1801,
   10.2866,      1869,
   10.3071,      1828,
   10.3275,      1927,
    10.348,      1859,
   10.3685,      1814,
   10.3889,      1812,
   10.4094,      1745,
   10.4298,      1762,
   10.4503,      1813,
   10.4708,      1807,
   10.4912,      1767,
   10.5117,      1865,
   10.5322,      1752,
   10.5526,      1902,
   10.5731,      1795,
   10.5936,      1781,
    10.614,      1793,
   10.6345,      1846,
   10.6549,      1825,
   10.6754,      1789,
   10.6959,      1782,
   10.7163,      1725,
   10.7368,      1777,
   10.7573,      1765,
   10.7777,      1745,
   10.7982,      1770,
   10.8187,      1737,
   10.8391,      1761,
   10.8596,      1772,
     10.88,      1740,
   10.9005,      1760,
    10.921,      1794,
   10.9414,      1727,
   10.9619,      1820,
   10.9824,      1730,
   11.0028,      1773,
   11.0233,      1766,
   11.0438,      1750,
   11.0642,      1758,
   11.0847,      1748,
   11.1052,      1675,
   11.1256,      1774,
   11.1461,      1708,
   11.1665,      1804,
    11.187,      1785,
   11.2075,      1714,
   11.2279,      1719,
   11.2484,      1708,
   11.2689,      1820,
   11.2893,      1762,
   11.3098,      1719,
   11.3303,      1720,
   11.3507,      1687,
   11.3712,      1776,
   11.3916,      1722,
   11.4121,      1720,
   11.4326,      1676,
    11.453,      1702,
   11.4735,      1736,
    11.494,      1734,
   11.5144,      1723,
   11.5349,      1707,
   11.5554,      1664,
   11.5758,      1713,
   11.5963,      1739,
   11.6167,      1712,
   11.6372,      1773,
   11.6577,      1751,
   11.6781,      1819,
   11.6986,      1680,
   11.7191,      1709,
   11.7395,      1750,
     11.76,      1726,
   11.7805,      1736,
   11.8009,      1707,
   11.8214,      1706,
   11.8419,      1693,
   11.8623,      1737,
   11.8828,      1769,
   11.9032,      1712,
   11.9237,      1775,
   11.9442,      1669,
   11.9646,      1799,
   11.9851,      1696,
   12.0056,      1705,
    12.026,      1723,
   12.0465,      1721,
    12.067,      1770,
   12.0874,      1698,
   12.1079,      1596,
   12.1283,      1707,
   12.1488,      1747,
   12.1693,      1730,
   12.1897,      1693,
   12.2102,      1723,
   12.2307,      1703,
   12.2511,      1735,
   12.2716,      1632,
   12.2921,      1641,
   12.3125,      1723,
    12.333,      1690,
   12.3534,      1705,
   12.3739,      1643,
   12.3944,      1682,
   12.4148,      1730,
   12.4353,      1755,
   12.4558,      1643,
   12.4762,      1674,
   12.4967,      1656,
   12.5172,      1662,
   12.5376,      1617,
   12.5581,      1703,
   12.5786,      1727,
    12.599,      1768,
   12.6195,      1732,
   12.6399,      1746,
   12.6604,      1783,
   12.6809,      1736,
   12.7013,      1696,
   12.7218,      1747,
   12.7423,      1688,
   12.7627,      1696,
   12.7832,      1737,
   12.8037,      1687,
   12.8241,      1712,
   12.8446,      1693,
    12.865,      1696,
   12.8855,      1754,
    12.906,      1728,
   12.9264,      1725,
   12.9469,      1700,
   12.9674,      1682,
   12.9878,      1678,
   13.0083,      1786,
   13.0288,      1667,
   13.0492,      1664,
   13.0697,      1768,
   13.0901,      1751,
   13.1106,      1741,
   13.1311,      1748,
   13.1515,      1660,
    13.172,      1725,
   13.1925,      1769,
   13.2129,      1745,
   13.2334,      1676,
   13.2539,      1782,
   13.2743,      1716,
   13.2948,      1734,
   13.3153,      1698,
   13.3357,      1707,
   13.3562,      1699,
   13.3766,      1758,
   13.3971,      1699,
   13.4176,      1684,
    13.438,      1690,
   13.4585,      1692,
    13.479,      1752,
   13.4994,      1776,
   13.5199,      1743,
   13.5404,      1740,
   13.5608,      1822,
   13.5813,      1764,
   13.6017,      1745,
   13.6222,      1711,
   13.6427,      1701,
   13.6631,      1758,
   13.6836,      1643,
   13.7041,      1724,
   13.7245,      1799,
    13.745,      1728,
   13.7655,      1762,
   13.7859,      1788,
   13.8064,      1753,
   13.8268,      1776,
   13.8473,      1695,
   13.8678,      1825,
   13.8882,      1704,
   13.9087,      1687,
   13.9292,      1719,
   13.9496,      1761,
   13.9701,      1823,
   13.9906,      1805,
    14.011,      1707,
   14.0315,      1748,
    14.052,      1753,
   14.0724,      1735,
   14.0929,      1814,
   14.1133,      1782,
   14.1338,      1816,
   14.1543,      1743,
   14.1747,      1739,
   14.1952,      1758,
   14.2157,      1683,
   14.2361,      1781,
   14.2566,      1786,
   14.2771,      1798,
   14.2975,      1792,
    14.318,      1787,
   14.3384,      1756,
   14.3589,      1919,
   14.3794,      1780,
   14.3998,      1788,
   14.4203,      1821,
   14.4408,      1830,
   14.4612,      1813,
   14.4817,      1879,
   14.5022,      1830,
   14.5226,      1819,
   14.5431,      1823,
   14.5635,      1796,
    14.584,      1797,
   14.6045,      1799,
   14.6249,      1730,
   14.6454,      1809,
   14.6659,      1781,
   14.6863,      1879,
   14.7068,      1828,
   14.7273,      1802,
   14.7477,      1791,
   14.7682,      1856,
   14.7887,      1853,
   14.8091,      1812,
   14.8296,      1798,
     14.85,      1853,
   14.8705,      1805,
    14.891,      1745,
   14.9114,      1810,
   14.9319,      1801,
   14.9524,      1862,
   14.9728,      1842,
   14.9933,      1866,
   15.0138,      1868,
   15.0342,      1785,
   15.0547,      1808,
   15.0751,      1911,
   15.0956,      1835,
   15.1161,      1907,
   15.1365,      1847,
    15.157,      1823,
   15.1775,      1908,
   15.1979,      1866,
   15.2184,      1838,
   15.2389,      1892,
   15.2593,      1901,
   15.2798,      1875,
   15.3002,      1895,
   15.3207,      1904,
   15.3412,      1880,
   15.3616,      1907,
   15.3821,      1868,
   15.4026,      1930,
    15.423,      1913,
   15.4435,      1847,
    15.464,      1943,
   15.4844,      1971,
   15.5049,      1939,
   15.5254,      1833,
   15.5458,      1841,
   15.5663,      1927,
   15.5867,      1906,
   15.6072,      1929,
   15.6277,      1973,
   15.6481,      1923,
   15.6686,      1976,
   15.6891,      1965,
   15.7095,      1960,
     15.73,      1950,
   15.7505,      1908,
   15.7709,      1938,
   15.7914,      2009,
   15.8118,      1950,
   15.8323,      1936,
   15.8528,      2007,
   15.8732,      1947,
   15.8937,      1992,
   15.9142,      2017,
   15.9346,      1977,
   15.9551,      1922,
   15.9756,      1981,
    15.996,      2077,
   16.0165,      2043,
   16.0369,      1946,
   16.0574,      2010,
   16.0779,      1982,
   16.0983,      1998,
   16.1188,      2036,
   16.1393,      2088,
   16.1597,      1941,
   16.1802,      2016,
   16.2007,      2039,
   16.2211,      2003,
   16.2416,      2139,
   16.2621,      1993,
   16.2825,      2039,
    16.303,      2068,
   16.3234,      1965,
   16.3439,      2043,
   16.3644,      2063,
   16.3848,      2051,
   16.4053,      2118,
   16.4258,      2032,
   16.4462,      2125,
   16.4667,      2044,
   16.4872,      2023,
   16.5076,      2146,
   16.5281,      2070,
   16.5485,      2077,
    16.569,      2092,
   16.5895,      2048,
   16.6099,      2116,
   16.6304,      2143,
   16.6509,      2148,
   16.6713,      2069,
   16.6918,      2109,
   16.7123,      2037,
   16.7327,      2175,
   16.7532,      2087,
   16.7736,      2145,
   16.7941,      2169,
   16.8146,      2139,
    16.835,      2125,
   16.8555,      2159,
    16.876,      2096,
   16.8964,      2114,
   16.9169,      2116,
   16.9374,      2178,
   16.9578,      2190,
   16.9783,      2227,
   16.9988,      2213,
   17.0192,      2169,
   17.0397,      2203,
   17.0601,      2210,
   17.0806,      2159,
   17.1011,      2273,
   17.1215,      2275,
    17.142,      2196,
   17.1625,      2215,
   17.1829,      2204,
   17.2034,      2160,
   17.2239,      2254,
   17.2443,      2273,
   17.2648,      2210,
   17.2852,      2154,
   17.3057,      2267,
   17.3262,      2291,
   17.3466,      2264,
   17.3671,      2251,
   17.3876,      2255,
    17.408,      2213,
   17.4285,      2369,
    17.449,      2280,
   17.4694,      2316,
   17.4899,      2241,
   17.5103,      2172,
   17.5308,      2203,
   17.5513,      2164,
   17.5717,      2297,
   17.5922,      2274,
   17.6127,      2366,
   17.6331,      2329,
   17.6536,      2281,
   17.6741,      2294,
   17.6945,      2313,
    17.715,      2257,
   17.7355,      2321,
   17.7559,      2408,
   17.7764,      2314,
   17.7968,      2414,
   17.8173,      2404,
   17.8378,      2340,
   17.8582,      2307,
   17.8787,      2398,
   17.8992,      2418,
   17.9196,      2312,
   17.9401,      2312,
   17.9606,      2423,
    17.981,      2447,
   18.0015,      2405,
   18.0219,      2432,
   18.0424,      2378,
   18.0629,      2425,
   18.0833,      2358,
   18.1038,      2354,
   18.1243,      2383,
   18.1447,      2414,
   18.1652,      2429,
   18.1857,      2456,
   18.2061,      2426,
   18.2266,      2494,
    18.247,      2553,
   18.2675,      2456,
    18.288,      2443,
   18.3084,      2515,
   18.3289,      2464,
   18.3494,      2474,
   18.3698,      2593,
   18.3903,      2439,
   18.4108,      2553,
   18.4312,      2449,
   18.4517,      2615,
   18.4722,      2570,
   18.4926,      2563,
   18.5131,      2569,
   18.5335,      2591,
    18.554,      2552,
   18.5745,      2554,
   18.5949,      2549,
   18.6154,      2537,
   18.6359,      2521,
   18.6563,      2512,
   18.6768,      2613,
   18.6973,      2678,
   18.7177,      2710,
   18.7382,      2522,
   18.7586,      2622,
   18.7791,      2601,
   18.7996,      2572,
     18.82,      2619,
   18.8405,      2662,
    18.861,      2633,
   18.8814,      2595,
   18.9019,      2780,
   18.9224,      2685,
   18.9428,      2679,
   18.9633,      2722,
   18.9837,      2676,
   19.0042,      2645,
   19.0247,      2771,
   19.0451,      2671,
   19.0656,      2670,
   19.0861,      2587,
   19.1065,      2646,
    19.127,      2694,
   19.1475,      2730,
   19.1679,      2721,
   19.1884,      2689,
   19.2089,      2701,
   19.2293,      2725,
   19.2498,      2761,
   19.2702,      2834,
   19.2907,      2679,
   19.3112,      2771,
   19.3316,      2759,
   19.3521,      2793,
   19.3726,      2755,
    19.393,      2754,
   19.4135,      2705,
    19.434,      2707,
   19.4544,      2855,
   19.4749,      2718,
   19.4953,      2801,
   19.5158,      2794,
   19.5363,      2704,
   19.5567,      2854,
   19.5772,      2862,
   19.5977,      2790,
   19.6181,      2775,
   19.6386,      2833,
   19.6591,      2873,
   19.6795,      2828,
      19.7,      2834,
   19.7204,      2819,
   19.7409,      2928,
   19.7614,      2888,
   19.7818,      2810,
   19.8023,      2853,
   19.8228,      2904,
   19.8432,      2829,
   19.8637,      2957,
   19.8842,      2875,
   19.9046,      2836,
   19.9251,      2911,
   19.9456,      2943,
    19.966,      2956,
   19.9865,      3007,
   20.0069,      2908,
   20.0274,      2941,
   20.0479,      2871,
   20.0683,      2901,
   20.0888,      2976,
   20.1093,      3098,
   20.1297,      2936,
   20.1502,      2957,
   20.1707,      2864,
   20.1911,      2989,
   20.2116,      2932,
    20.232,      2951,
   20.2525,      3030,
    20.273,      2988,
   20.2934,      3021,
   20.3139,      2981,
   20.3344,      3040,
   20.3548,      2934,
   20.3753,      3105,
   20.3958,      3000,
   20.4162,      3033,
   20.4367,      2978,
   20.4571,      3086,
   20.4776,      3019,
   20.4981,      3007,
   20.5185,      3060,
    20.539,      2980,
   20.5595,      3064,
   20.5799,      3038,
   20.6004,      3031,
   20.6209,      3026,
   20.6413,      3089,
   20.6618,      3021,
   20.6823,      3009,
   20.7027,      3024,
   20.7232,      2931,
   20.7436,      2974,
   20.7641,      3154,
   20.7846,      3080,
    20.805,      3038,
   20.8255,      3010,
    20.846,      3033,
   20.8664,      3023,
   20.8869,      3140,
   20.9074,      3139,
   20.9278,      3087,
   20.9483,      3074,
   20.9687,      3043,
   20.9892,      3037,
   21.0097,      3015,
   21.0301,      3097,
   21.0506,      3108,
   21.0711,      3117,
   21.0915,      3086,
    21.112,      3204,
   21.1325,      3098,
   21.1529,      3114,
   21.1734,      3172,
   21.1938,      3129,
   21.2143,      3153,
   21.2348,      3244,
   21.2552,      3092,
   21.2757,      3147,
   21.2962,      3101,
   21.3166,      3195,
   21.3371,      3174,
   21.3576,      3156,
    21.378,      3081,
   21.3985,      3122,
    21.419,      3075,
   21.4394,      3119,
   21.4599,      3168,
   21.4803,      3120,
   21.5008,      3184,
   21.5213,      3083,
   21.5417,      3126,
   21.5622,      3145,
   21.5827,      3136,
   21.6031,      3196,
   21.6236,      3173,
   21.6441,      3182,
   21.6645,      3209,
    21.685,      3215,
   21.7054,      3105,
   21.7259,      3038,
   21.7464,      3093,
   21.7668,      3106,
   21.7873,      3175,
   21.8078,      3169,
   21.8282,      3182,
   21.8487,      3245,
   21.8692,      3182,
   21.8896,      3128,
   21.9101,      3141,
   21.9305,      3093,
    21.951,      3094,
   21.9715,      3186,
   21.9919,      3075,
   22.0124,      3143,
   22.0329,      3082,
   22.0533,      3131,
   22.0738,      3066,
   22.0943,      3270,
   22.1147,      3158,
   22.1352,      3133,
   22.1557,      3062,
   22.1761,      3123,
   22.1966,      3231,
    22.217,      3086,
   22.2375,      3141,
    22.258,      3209,
   22.2784,      3098,
   22.2989,      3016,
   22.3194,      3095,
   22.3398,      3139,
   22.3603,      3153,
   22.3808,      3074,
   22.4012,      3195,
   22.4217,      3104,
   22.4421,      3153,
   22.4626,      3129,
   22.4831,      3168,
   22.5035,      3150,
    22.524,      3095,
   22.5445,      3005,
   22.5649,      3099,
   22.5854,      3096,
   22.6059,      3172,
   22.6263,      3097,
   22.6468,      3196,
   22.6672,      3097,
   22.6877,      3138,
   22.7082,      3111,
   22.7286,      3124,
   22.7491,      3109,
   22.7696,      3107,
     22.79,      3115,
   22.8105,      3106,
    22.831,      3127,
   22.8514,      3008,
   22.8719,      3231,
   22.8924,      3090,
   22.9128,      3123,
   22.9333,      3101,
   22.9537,      3066,
   22.9742,      3097,
   22.9947,      3093,
   23.0151,      3124,
   23.0356,      3146,
   23.0561,      3111,
   23.0765,      3174,
    23.097,      3103,
   23.1175,      3075,
   23.1379,      3081,
   23.1584,      3054,
   23.1788,      3146,
   23.1993,      3064,
   23.2198,      3007,
   23.2402,      3028,
   23.2607,      3028,
   23.2812,      2945,
   23.3016,      3055,
   23.3221,      3042,
   23.3426,      3071,
    23.363,      3133,
   23.3835,      3055,
   23.4039,      2996,
   23.4244,      3069,
   23.4449,      3069,
   23.4653,      3032,
   23.4858,      3066,
   23.5063,      2957,
   23.5267,      2962,
   23.5472,      2961,
   23.5677,      2926,
   23.5881,      3023,
   23.6086,      3004,
   23.6291,      2999,
   23.6495,      3043,
     23.67,      3045,
   23.6904,      2984,
   23.7109,      3087,
   23.7314,      2952,
   23.7518,      2999,
   23.7723,      3007,
   23.7928,      2967,
   23.8132,      3040,
   23.8337,      3001,
   23.8542,      2794,
   23.8746,      3032,
   23.8951,      2917,
   23.9155,      2978,
    23.936,      2967,
   23.9565,      2870,
   23.9769,      2943,
   23.9974,      2935,
   24.0179,      2899,
   24.0383,      2851,
   24.0588,      2905,
   24.0793,      2914,
   24.0997,      2866,
   24.1202,      2917,
   24.1407,      2893,
   24.1611,      2887,
   24.1816,      2846,
    24.202,      2954,
   24.2225,      2903,
    24.243,      2793,
   24.2634,      2874,
   24.2839,      2887,
   24.3044,      2936,
   24.3248,      2767,
   24.3453,      2929,
   24.3658,      2911,
   24.3862,      2827,
   24.4067,      2854,
   24.4271,      2954,
   24.4476,      2805,
   24.4681,      2845,
   24.4885,      2905,
    24.509,      2804,
   24.5295,      2748,
   24.5499,      2825,
   24.5704,      2747,
   24.5909,      2871,
   24.6113,      2836,
   24.6318,      2825,
   24.6522,      2792,
   24.6727,      2758,
   24.6932,      2764,
   24.7136,      2804,
   24.7341,      2840,
   24.7546,      2739,
    24.775,      2834,
   24.7955,      2825,
    24.816,      2783,
   24.8364,      2806,
   24.8569,      2663,
   24.8774,      2699,
   24.8978,      2764,
   24.9183,      2733,
   24.9387,      2717,
   24.9592,      2778,
   24.9797,      2737,
   25.0001,      2693,
   25.0206,      2749,
   25.0411,      2764,
   25.0615,      2719,
    25.082,      2736,
   25.1025,      2695,
   25.1229,      2760,
   25.1434,      2744,
   25.1638,      2681,
   25.1843,      2583,
   25.2048,      2586,
   25.2252,      2664,
   25.2457,      2613,
   25.2662,      2671,
   25.2866,      2626,
   25.3071,      2633,
   25.3276,      2578,
    25.348,      2635,
   25.3685,      2569,
   25.3889,      2614,
   25.4094,      2577,
   25.4299,      2565,
   25.4503,      2572,
   25.4708,      2590,
   25.4913,      2571,
   25.5117,      2554,
   25.5322,      2575,
   25.5527,      2644,
   25.5731,      2561,
   25.5936,      2591,
   25.6141,      2646,
   25.6345,      2577,
    25.655,      2515,
   25.6754,      2626,
   25.6959,      2546,
   25.7164,      2547,
   25.7368,      2598,
   25.7573,      2503,
   25.7778,      2526,
   25.7982,      2574,
   25.8187,      2504,
   25.8392,      2480,
   25.8596,      2557,
   25.8801,      2488,
   25.9005,      2463,
    25.921,      2534,
   25.9415,      2515,
   25.9619,      2463,
   25.9824,      2350,
   26.0029,      2455,
   26.0233,      2515,
   26.0438,      2517,
   26.0643,      2498,
   26.0847,      2435,
   26.1052,      2430,
   26.1256,      2436,
   26.1461,      2447,
   26.1666,      2601,
    26.187,      2432,
   26.2075,      2501,
    26.228,      2404,
   26.2484,      2502,
   26.2689,      2402,
   26.2894,      2475,
   26.3098,      2357,
   26.3303,      2401,
   26.3508,      2469,
   26.3712,      2430,
   26.3917,      2405,
   26.4121,      2412,
   26.4326,      2425,
   26.4531,      2324,
   26.4735,      2301,
    26.494,      2291,
   26.5145,      2397,
   26.5349,      2380,
   26.5554,      2388,
   26.5759,      2489,
   26.5963,      2401,
   26.6168,      2381,
   26.6372,      2323,
   26.6577,      2299,
   26.6782,      2404,
   26.6986,      2319,
   26.7191,      2323,
   26.7396,      2372,
     26.76,      2322,
   26.7805,      2384,
    26.801,      2353,
   26.8214,      2335,
   26.8419,      2350,
   26.8623,      2250,
   26.8828,      2307,
   26.9033,      2340,
   26.9237,      2323,
   26.9442,      2250,
   26.9647,      2265,
   26.9851,      2270,
   27.0056,      2269,
   27.0261,      2349,
   27.0465,      2291,
    27.067,      2194,
   27.0875,      2274,
   27.1079,      2332,
   27.1284,      2318,
   27.1488,      2279,
   27.1693,      2252,
   27.1898,      2307,
   27.2102,      2261,
   27.2307,      2265,
   27.2512,      2263,
   27.2716,      2278,
   27.2921,      2193,
   27.3126,      2231,
    27.333,      2257,
   27.3535,      2279,
   27.3739,      2175,
   27.3944,      2080,
   27.4149,      2228,
   27.4353,      2201,
   27.4558,      2206,
   27.4763,      2198,
   27.4967,      2217,
   27.5172,      2154,
   27.5377,      2155,
   27.5581,      2221,
   27.5786,      2222,
    27.599,      2150,
   27.6195,      2182,
     27.64,      2181,
   27.6604,      2214,
   27.6809,      2175,
   27.7014,      2132,
   27.7218,      2141,
   27.7423,      2175,
   27.7628,      2218,
   27.7832,      2114,
   27.8037,      2116,
   27.8242,      2147,
   27.8446,      2102,
   27.8651,      2123,
   27.8855,      2085,
    27.906,      2095,
   27.9265,      2151,
   27.9469,      2162,
   27.9674,      2149,
   27.9879,      2119,
   28.0083,      2091,
   28.0288,      2153,
   28.0493,      2121,
   28.0697,      2048,
   28.0902,      2079,
   28.1106,      2052,
   28.1311,      2082,
   28.1516,      2076,
    28.172,      2098,
   28.1925,      2090,
    28.213,      2088,
   28.2334,      2119,
   28.2539,      2024,
   28.2744,      2012,
   28.2948,      2067,
   28.3153,      2102,
   28.3357,      1952,
   28.3562,      2045,
   28.3767,      2038,
   28.3971,      2061,
   28.4176,      1983,
   28.4381,      1979,
   28.4585,      1970,
    28.479,      2011,
   28.4995,      1982,
   28.5199,      2023,
   28.5404,      2097,
   28.5609,      1944,
   28.5813,      2086,
   28.6018,      2084,
   28.6222,      2104,
   28.6427,      1992,
   28.6632,      1988,
   28.6836,      1951,
   28.7041,      1993,
   28.7246,      1988,
    28.745,      2074,
   28.7655,      2017,
    28.786,      1926,
   28.8064,      2050,
   28.8269,      2002,
   28.8473,      1918,
   28.8678,      2001,
   28.8883,      2006,
   28.9087,      2011,
   28.9292,      2041,
   28.9497,      1903,
   28.9701,      1933,
   28.9906,      1935,
   29.0111,      1920,
   29.0315,      1855,
    29.052,      1941,
   29.0724,      1964,
   29.0929,      1979,
   29.1134,      1891,
   29.1338,      1893,
   29.1543,      1977,
   29.1748,      1896,
   29.1952,      1879,
   29.2157,      1939,
   29.2362,      1906,
   29.2566,      2044,
   29.2771,      1886,
   29.2976,      1915,
    29.318,      1813,
   29.3385,      1909,
   29.3589,      1876,
   29.3794,      1876,
   29.3999,      1884,
   29.4203,      1904,
   29.4408,      1848,
   29.4613,      1949,
   29.4817,      1906,
   29.5022,      1867,
   29.5227,      1863,
   29.5431,      1848,
   29.5636,      1902,
    29.584,      1877,
   29.6045,      1959,
    29.625,      1904,
   29.6454,      1878,
   29.6659,      1857,
   29.6864,      1815,
   29.7068,      1867,
   29.7273,      1814,
   29.7478,      1871,
   29.7682,      1868,
   29.7887,      1841,
   29.8091,      1826,
   29.8296,      1761,
   29.8501,      1919,
   29.8705,      1864,
    29.891,      1846,
   29.9115,      1887,
   29.9319,      1867,
   29.9524,      1857,
   29.9729,      1814,
   29.9933,      1903,
   30.0138,      1778,
   30.0343,      1848,
   30.0547,      1846,
   30.0752,      1894,
   30.0956,      1805,
   30.1161,      1876,
   30.1366,      1791,
    30.157,      1798,
   30.1775,      1879,
    30.198,      1753,
   30.2184,      1814,
   30.2389,      1735,
   30.2594,      1766,
   30.2798,      1822,
   30.3003,      1853,
   30.3207,      1820,
   30.3412,      1786,
   30.3617,      1796,
   30.3821,      1697,
   30.4026,      1833,
   30.4231,      1757,
   30.4435,      1660,
    30.464,      1846,
   30.4845,      1802,
   30.5049,      1743,
   30.5254,      1777,
   30.5458,      1713,
   30.5663,      1831,
   30.5868,      1746,
   30.6072,      1828,
   30.6277,      1666,
   30.6482,      1763,
   30.6686,      1756,
   30.6891,      1790,
   30.7096,      1740,
     30.73,      1741,
   30.7505,      1725,
    30.771,      1785,
   30.7914,      1758,
   30.8119,      1684,
   30.8323,      1734,
   30.8528,      1813,
   30.8733,      1762,
   30.8937,      1842,
   30.9142,      1739,
   30.9347,      1716,
   30.9551,      1715,
   30.9756,      1727,
   30.9961,      1736,
   31.0165,      1681,
    31.037,      1688,
   31.0574,      1769,
   31.0779,      1677,
   31.0984,      1698,
   31.1188,      1751,
   31.1393,      1756,
   31.1598,      1676,
   31.1802,      1711,
   31.2007,      1679,
   31.2212,      1679,
   31.2416,      1729,
   31.2621,      1675,
   31.2825,      1706,
    31.303,      1716,
   31.3235,      1588,
   31.3439,      1688,
   31.3644,      1690,
   31.3849,      1729,
   31.4053,      1694,
   31.4258,      1676,
   31.4463,      1715,
   31.4667,      1610,
   31.4872,      1658,
   31.5077,      1629,
   31.5281,      1597,
   31.5486,      1628,
    31.569,      1705,
   31.5895,      1627,
     31.61,      1613,
   31.6304,      1748,
   31.6509,      1728,
   31.6714,      1595,
   31.6918,      1677,
   31.7123,      1606,
   31.7328,      1630,
   31.7532,      1655,
   31.7737,      1720,
   31.7941,      1562,
   31.8146,      1699,
   31.8351,      1672,
   31.8555,      1613,
    31.876,      1668,
   31.8965,      1714,
   31.9169,      1590,
   31.9374,      1606,
   31.9579,      1579,
   31.9783,      1684,
   31.9988,      1604,
   32.0192,      1638,
   32.0397,      1596,
   32.0602,      1630,
   32.0806,      1630,
   32.1011,      1557,
   32.1216,      1618,
    32.142,      1576,
   32.1625,      1556,
    32.183,      1608,
   32.2034,      1554,
   32.2239,      1537,
   32.2444,      1596,
   32.2648,      1594,
   32.2853,      1607,
   32.3057,      1648,
   32.3262,      1577,
   32.3467,      1548,
   32.3671,      1593,
   32.3876,      1544,
   32.4081,      1554,
   32.4285,      1611,
    32.449,      1586,
   32.4695,      1565,
   32.4899,      1536,
   32.5104,      1669,
   32.5308,      1536,
   32.5513,      1563,
   32.5718,      1504,
   32.5922,      1560,
   32.6127,      1567,
   32.6332,      1570,
   32.6536,      1586,
   32.6741,      1582,
   32.6946,      1576,
    32.715,      1635,
   32.7355,      1616,
   32.7559,      1524,
   32.7764,      1611,
   32.7969,      1623,
   32.8173,      1602,
   32.8378,      1561,
   32.8583,      1548,
   32.8787,      1537,
   32.8992,      1552,
   32.9197,      1596,
   32.9401,      1560,
   32.9606,      1512,
   32.9811,      1468,
   33.0015,      1548,
    33.022,      1594,
   33.0424,      1524,
   33.0629,      1502,
   33.0834,      1533,
   33.1038,      1589,
   33.1243,      1493,
   33.1448,      1507,
   33.1652,      1625,
   33.1857,      1538,
   33.2062,      1501,
   33.2266,      1581,
   33.2471,      1539,
   33.2675,      1563,
    33.288,      1518,
   33.3085,      1549,
   33.3289,      1536,
   33.3494,      1509,
   33.3699,      1617,
   33.3903,      1484,
   33.4108,      1482,
   33.4313,      1524,
   33.4517,      1454,
   33.4722,      1472,
   33.4926,      1537,
   33.5131,      1545,
   33.5336,      1547,
    33.554,      1466,
   33.5745,      1469,
    33.595,      1476,
   33.6154,      1448,
   33.6359,      1475,
   33.6564,      1473,
   33.6768,      1503,
   33.6973,      1481,
   33.7178,      1491,
   33.7382,      1498,
   33.7587,      1471,
   33.7791,      1519,
   33.7996,      1449,
   33.8201,      1475,
   33.8405,      1500,
    33.861,      1541,
   33.8815,      1517,
   33.9019,      1488,
   33.9224,      1489,
   33.9429,      1425,
   33.9633,      1471,
   33.9838,      1432,
   34.0042,      1433,
   34.0247,      1455,
   34.0452,      1442,
   34.0656,      1508,
   34.0861,      1502,
   34.1066,      1477,
    34.127,      1439,
   34.1475,      1479,
    34.168,      1452,
   34.1884,      1429,
   34.2089,      1438,
   34.2293,      1481,
   34.2498,      1473,
   34.2703,      1490,
   34.2907,      1465,
   34.3112,      1525,
   34.3317,      1446,
   34.3521,      1406,
   34.3726,      1434,
   34.3931,      1375,
   34.4135,      1425,
    34.434,      1475,
   34.4545,      1434,
   34.4749,      1493,
   34.4954,      1404,
   34.5158,      1464,
   34.5363,      1469,
   34.5568,      1437,
   34.5772,      1468,
   34.5977,      1473,
   34.6182,      1475,
   34.6386,      1428,
   34.6591,      1382,
   34.6796,      1469,
      34.7,      1454,
   34.7205,      1408,
   34.7409,      1426,
   34.7614,      1391,
   34.7819,      1379,
   34.8023,      1383,
   34.8228,      1418,
   34.8433,      1375,
   34.8637,      1433,
   34.8842,      1410,
   34.9047,      1327,
   34.9251,      1404,
   34.9456,      1451,
    34.966,      1368,
   34.9865,      1448,
    35.007,      1472,
   35.0274,      1499,
   35.0479,      1478,
   35.0684,      1394,
   35.0888,      1359,
   35.1093,      1392,
   35.1298,      1422,
   35.1502,      1426,
   35.1707,      1434,
   35.1912,      1477,
   35.2116,      1407,
   35.2321,      1409,
   35.2525,      1400,
    35.273,      1367,
   35.2935,      1402,
   35.3139,      1375,
   35.3344,      1353,
   35.3549,      1365,
   35.3753,      1390,
   35.3958,      1316,
   35.4163,      1404,
   35.4367,      1454,
   35.4572,      1444,
   35.4776,      1413,
   35.4981,      1371,
   35.5186,      1396,
    35.539,      1380,
   35.5595,      1445,
     35.58,      1366,
   35.6004,      1379,
   35.6209,      1457,
   35.6414,      1311,
   35.6618,      1398,
   35.6823,      1438,
   35.7027,      1379,
   35.7232,      1409,
   35.7437,      1379,
   35.7641,      1375,
   35.7846,      1414,
   35.8051,      1455,
   35.8255,      1396,
    35.846,      1341,
   35.8665,      1346,
   35.8869,      1340,
   35.9074,      1408,
   35.9279,      1348,
   35.9483,      1427,
   35.9688,      1341,
   35.9892,      1374,
   36.0097,      1385,
   36.0302,      1395,
   36.0506,      1387,
   36.0711,      1484,
   36.0916,      1381,
    36.112,      1416,
   36.1325,      1428,
    36.153,      1410,
   36.1734,      1448,
   36.1939,      1368,
   36.2143,      1431,
   36.2348,      1387,
   36.2553,      1324,
   36.2757,      1446,
   36.2962,      1392,
   36.3167,      1374,
   36.3371,      1372,
   36.3576,      1387,
   36.3781,      1393,
   36.3985,      1397,
    36.419,      1331,
   36.4394,      1432,
   36.4599,      1379,
   36.4804,      1448,
   36.5008,      1392,
   36.5213,      1416,
   36.5418,      1459,
   36.5622,      1430,
   36.5827,      1429,
   36.6032,      1459,
   36.6236,      1451,
   36.6441,      1477,
   36.6646,      1515,
    36.685,      1493,
   36.7055,      1476,
   36.7259,      1530,
   36.7464,      1569,
   36.7669,      1557,
   36.7873,      1503,
   36.8078,      1624,
   36.8283,      1650,
   36.8487,      1611,
   36.8692,      1741,
   36.8897,      1713,
   36.9101,      1855,
   36.9306,      1855,
    36.951,      1917,
   36.9715,      2001,
    36.992,      2164,
   37.0124,      2254,
   37.0329,      2290,
   37.0534,      2479,
   37.0738,      2539,
   37.0943,      2734,
   37.1148,      2707,
   37.1352,      2879,
   37.1557,      3110,
   37.1761,      3035,
   37.1966,      3198,
   37.2171,      3075,
   37.2375,      3036,
    37.258,      2935,
   37.2785,      2873,
   37.2989,      2646,
   37.3194,      2500,
   37.3399,      2479,
   37.3603,      2296,
   37.3808,      2196,
   37.4013,      1995,
   37.4217,      1957,
   37.4422,      1867,
   37.4626,      1791,
   37.4831,      1590,
   37.5036,      1640,
    37.524,      1499,
   37.5445,      1564,
    37.565,      1519,
   37.5854,      1454,
   37.6059,      1412,
   37.6264,      1421,
   37.6468,      1484,
   37.6673,      1411,
   37.6877,      1382,
   37.7082,      1403,
   37.7287,      1362,
   37.7491,      1322,
   37.7696,      1345,
   37.7901,      1351,
   37.8105,      1395,
    37.831,      1328,
   37.8515,      1349,
   37.8719,      1356,
   37.8924,      1358,
   37.9129,      1337,
   37.9333,      1317,
   37.9538,      1254,
   37.9742,      1341,
   37.9947,      1288,
   38.0152,      1296,
   38.0356,      1256,
   38.0561,      1271,
   38.0766,      1325,
    38.097,      1280,
   38.1175,      1282,
    38.138,      1262,
   38.1584,      1265,
   38.1789,      1196,
   38.1993,      1310,
   38.2198,      1278,
   38.2403,      1265,
   38.2607,      1250,
   38.2812,      1187,
   38.3017,      1273,
   38.3221,      1229,
   38.3426,      1231,
   38.3631,      1246,
   38.3835,      1272,
    38.404,      1279,
   38.4244,      1209,
   38.4449,      1246,
   38.4654,      1255,
   38.4858,      1206,
   38.5063,      1219,
   38.5268,      1223,
   38.5472,      1242,
   38.5677,      1255,
   38.5882,      1224,
   38.6086,      1194,
   38.6291,      1249,
   38.6496,      1232,
     38.67,      1198,
   38.6905,      1248,
   38.7109,      1232,
   38.7314,      1230,
   38.7519,      1233,
   38.7723,      1158,
   38.7928,      1235,
   38.8133,      1209,
   38.8337,      1191,
   38.8542,      1229,
   38.8747,      1198,
   38.8951,      1234,
   38.9156,      1184,
    38.936,      1190,
   38.9565,      1136,
    38.977,      1205,
   38.9974,      1264,
   39.0179,      1176,
   39.0384,      1199,
   39.0588,      1250,
   39.0793,      1224,
   39.0998,      1212,
   39.1202,      1205,
   39.1407,      1191,
   39.1611,      1164,
   39.1816,      1174,
   39.2021,      1158,
   39.2225,      1160,
    39.243,      1193,
   39.2635,      1214,
   39.2839,      1137,
   39.3044,      1183,
   39.3249,      1233,
   39.3453,      1173,
   39.3658,      1197,
   39.3863,      1163,
   39.4067,      1183,
   39.4272,      1177,
   39.4476,      1153,
   39.4681,      1225,
   39.4886,      1175,
    39.509,      1210,
   39.5295,      1205,
     39.55,      1270,
   39.5704,      1122,
   39.5909,      1145,
   39.6114,      1202,
   39.6318,      1167,
   39.6523,      1182,
   39.6727,      1145,
   39.6932,      1157,
   39.7137,      1208,
   39.7341,      1205,
   39.7546,      1163,
   39.7751,      1144,
   39.7955,      1204,
    39.816,      1208,
   39.8365,      1146,
   39.8569,      1141,
   39.8774,      1130,
   39.8978,      1223,
   39.9183,      1191,
   39.9388,      1163,
   39.9592,      1170,
   39.9797,      1181,
   40.0002,      1152,
   40.0206,      1104,
   40.0411,      1101,
   40.0616,      1174,
    40.082,      1157,
   40.1025,      1147,
    40.123,      1140,
   40.1434,      1210,
   40.1639,      1144,
   40.1843,      1165,
   40.2048,      1189,
   40.2253,      1191,
   40.2457,      1143,
   40.2662,      1181,
   40.2867,      1181,
   40.3071,      1182,
   40.3276,      1240,
   40.3481,      1158,
   40.3685,      1188,
    40.389,      1164,
   40.4094,      1196,
   40.4299,      1144,
   40.4504,      1213,
   40.4708,      1181,
   40.4913,      1153,
   40.5118,      1154,
   40.5322,      1175,
   40.5527,      1193,
   40.5732,      1164,
   40.5936,      1189,
   40.6141,      1209,
   40.6345,      1236,
    40.655,      1133,
   40.6755,      1147,
   40.6959,      1145,
   40.7164,      1194,
   40.7369,      1119,
   40.7573,      1163,
   40.7778,      1158,
   40.7983,      1148,
   40.8187,      1133,
   40.8392,      1124,
   40.8597,      1156,
   40.8801,      1172,
   40.9006,      1153,
    40.921,      1155,
   40.9415,      1172,
    40.962,      1182,
   40.9824,      1147,
   41.0029,      1166,
   41.0234,      1175,
   41.0438,      1150,
   41.0643,      1121,
   41.0848,      1144,
   41.1052,      1200,
   41.1257,      1110,
   41.1461,      1123,
   41.1666,      1142,
   41.1871,      1079,
   41.2075,      1112,
    41.228,      1097,
   41.2485,      1221,
   41.2689,      1127,
   41.2894,      1132,
   41.3099,      1172,
   41.3303,      1115,
   41.3508,      1173,
   41.3712,      1158,
   41.3917,      1166,
   41.4122,      1162,
   41.4326,      1157,
   41.4531,      1181,
   41.4736,      1172,
    41.494,      1154,
   41.5145,      1096,
    41.535,      1148,
   41.5554,      1181,
   41.5759,      1185,
   41.5964,      1178,
   41.6168,      1231,
   41.6373,      1203,
   41.6577,      1164,
   41.6782,      1176,
   41.6987,      1232,
   41.7191,      1127,
   41.7396,      1198,
   41.7601,      1181,
   41.7805,      1180,
    41.801,      1231,
   41.8215,      1183,
   41.8419,      1220,
   41.8624,      1155,
   41.8828,      1245,
   41.9033,      1227,
   41.9238,      1248,
   41.9442,      1229,
   41.9647,      1205,
   41.9852,      1240,
   42.0056,      1243,
   42.0261,      1242,
   42.0466,      1229,
    42.067,      1227,
   42.0875,      1221,
   42.1079,      1254,
   42.1284,      1222,
   42.1489,      1211,
   42.1693,      1275,
   42.1898,      1243,
   42.2103,      1169,
   42.2307,      1273,
   42.2512,      1332,
   42.2717,      1272,
   42.2921,      1320,
   42.3126,      1277,
   42.3331,      1276,
   42.3535,      1272,
    42.374,      1269,
   42.3944,      1304,
   42.4149,      1283,
   42.4354,      1301,
   42.4558,      1310,
   42.4763,      1332,
   42.4968,      1383,
   42.5172,      1351,
   42.5377,      1382,
   42.5582,      1373,
   42.5786,      1343,
   42.5991,      1452,
   42.6195,      1409,
     42.64,      1416,
   42.6605,      1446,
   42.6809,      1459,
   42.7014,      1516,
   42.7219,      1529,
   42.7423,      1575,
   42.7628,      1627,
   42.7833,      1691,
   42.8037,      1725,
   42.8242,      1799,
   42.8446,      1873,
   42.8651,      1889,
   42.8856,      1958,
    42.906,      2032,
   42.9265,      2174,
    42.947,      2282,
   42.9674,      2385,
   42.9879,      2533,
   43.0084,      2626,
   43.0288,      2875,
   43.0493,      3021,
   43.0698,      3135,
   43.0902,      3429,
   43.1107,      3637,
   43.1311,      3814,
   43.1516,      4006,
   43.1721,      4279,
   43.1925,      4442,
    43.213,      4517,
   43.2335,      4606,
   43.2539,      4389,
   43.2744,      4383,
   43.2949,      4258,
   43.3153,      3935,
   43.3358,      3808,
   43.3562,      3475,
   43.3767,      3266,
   43.3972,      2894,
   43.4176,      2841,
   43.4381,      2607,
   43.4586,      2381,
    43.479,      2247,
   43.4995,      2116,
     43.52,      1921,
   43.5404,      1951,
   43.5609,      1858,
   43.5813,      1740,
   43.6018,      1701,
   43.6223,      1648,
   43.6427,      1581,
   43.6632,      1497,
   43.6837,      1503,
   43.7041,      1437,
   43.7246,      1429,
   43.7451,      1423,
   43.7655,      1428,
    43.786,      1434,
   43.8065,      1363,
   43.8269,      1376,
   43.8474,      1348,
   43.8678,      1391,
   43.8883,      1401,
   43.9088,      1419,
   43.9292,      1394,
   43.9497,      1368,
   43.9702,      1365,
   43.9906,      1340,
   44.0111,      1289,
   44.0316,      1384,
    44.052,      1306,
   44.0725,      1245,
   44.0929,      1240,
   44.1134,      1240,
   44.1339,      1217,
   44.1543,      1267,
   44.1748,      1223,
   44.1953,      1227,
   44.2157,      1219,
   44.2362,      1216,
   44.2567,      1163,
   44.2771,      1255,
   44.2976,      1199,
    44.318,      1199,
   44.3385,      1211,
    44.359,      1207,
   44.3794,      1170,
   44.3999,      1161,
   44.4204,      1140,
   44.4408,      1219,
   44.4613,      1159,
   44.4818,      1206,
   44.5022,      1144,
   44.5227,      1132,
   44.5432,      1118,
   44.5636,      1169,
   44.5841,      1130,
   44.6045,      1095,
    44.625,      1170,
   44.6455,      1098,
   44.6659,      1152,
   44.6864,      1188,
   44.7069,      1233,
   44.7273,      1111,
   44.7478,      1057,
   44.7683,      1090,
   44.7887,      1110,
   44.8092,      1171,
   44.8296,      1110,
   44.8501,      1130,
   44.8706,      1064,
    44.891,      1178,
   44.9115,      1126,
    44.932,      1172,
   44.9524,      1114,
   44.9729,      1196,
   44.9934,      1057,
   45.0138,      1132,
   45.0343,      1138,
   45.0547,      1093,
   45.0752,      1119,
   45.0957,      1170,
   45.1161,      1121,
   45.1366,      1072,
   45.1571,      1084,
   45.1775,      1074,
    45.198,      1084,
   45.2185,      1032,
   45.2389,      1087,
   45.2594,      1129,
   45.2799,      1080,
   45.3003,      1125,
   45.3208,      1074,
   45.3412,      1111,
   45.3617,      1072,
   45.3822,      1079,
   45.4026,      1096,
   45.4231,      1128,
   45.4436,      1036,
    45.464,      1167,
   45.4845,      1061,
    45.505,      1072,
   45.5254,      1108,
   45.5459,      1025,
   45.5663,      1145,
   45.5868,      1112,
   45.6073,      1034,
   45.6277,      1049,
   45.6482,      1087,
   45.6687,      1100,
   45.6891,      1090,
   45.7096,      1133,
   45.7301,      1082,
   45.7505,      1104,
    45.771,      1067,
   45.7914,      1046,
   45.8119,      1079,
   45.8324,      1052,
   45.8528,      1082,
   45.8733,      1119,
   45.8938,      1100,
   45.9142,      1102,
   45.9347,      1041,
   45.9552,      1070,
   45.9756,      1103,
   45.9961,      1079,
   46.0166,      1105,
    46.037,      1092,
   46.0575,      1102,
   46.0779,      1094,
   46.0984,      1092,
   46.1189,      1064,
   46.1393,      1104,
   46.1598,      1095,
   46.1803,      1054,
   46.2007,      1107,
   46.2212,      1054,
   46.2417,      1050,
   46.2621,      1038,
   46.2826,      1039,
    46.303,      1051,
   46.3235,      1079,
    46.344,      1075,
   46.3644,      1064,
   46.3849,      1075,
   46.4054,      1134,
   46.4258,      1084,
   46.4463,      1123,
   46.4668,      1062,
   46.4872,      1089,
   46.5077,      1076,
   46.5281,      1023,
   46.5486,      1053,
   46.5691,      1068,
   46.5895,      1027,
     46.61,      1095,
   46.6305,      1086,
   46.6509,      1108,
   46.6714,      1114,
   46.6919,      1125,
   46.7123,      1099,
   46.7328,      1031,
   46.7533,      1115,
   46.7737,       953,
   46.7942,      1059,
   46.8146,      1030,
   46.8351,      1042,
   46.8556,      1022,
    46.876,      1087,
   46.8965,      1006,
    46.917,      1074,
   46.9374,      1057,
   46.9579,      1072,
   46.9784,      1118,
   46.9988,      1048,
   47.0193,      1070,
   47.0397,      1071,
   47.0602,      1063,
   47.0807,      1080,
   47.1011,      1089,
   47.1216,      1021,
   47.1421,      1017,
   47.1625,      1084,
    47.183,      1035,
   47.2035,      1078,
   47.2239,      1109,
   47.2444,      1064,
   47.2648,      1047,
   47.2853,      1040,
   47.3058,      1094,
   47.3262,      1084,
   47.3467,       997,
   47.3672,      1063,
   47.3876,      1064,
   47.4081,      1032,
   47.4286,      1093,
    47.449,      1048,
   47.4695,      1076,
     47.49,      1079,
   47.5104,       998,
   47.5309,      1036,
   47.5513,      1025,
   47.5718,       981,
   47.5923,      1019,
   47.6127,      1087,
   47.6332,      1029,
   47.6537,       969,
   47.6741,       967,
   47.6946,      1056,
   47.7151,      1019,
   47.7355,      1034,
    47.756,      1037,
   47.7764,      1100,
   47.7969,      1054,
   47.8174,      1087,
   47.8378,      1026,
   47.8583,      1010,
   47.8788,      1081,
   47.8992,      1038,
   47.9197,      1068,
   47.9402,      1046,
   47.9606,       983,
   47.9811,       967,
   48.0015,      1078,
    48.022,      1017,
   48.0425,      1052,
   48.0629,      1056,
   48.0834,      1018,
   48.1039,      1074,
   48.1243,      1022,
   48.1448,      1044,
   48.1653,      1059,
   48.1857,       964,
   48.2062,      1060,
   48.2267,      1034,
   48.2471,       946,
   48.2676,       993,
    48.288,      1039,
   48.3085,      1045,
    48.329,      1007,
   48.3494,      1008,
   48.3699,      1030,
   48.3904,      1012,
   48.4108,      1073,
   48.4313,      1016,
   48.4518,      1011,
   48.4722,       994,
   48.4927,      1055,
   48.5131,      1009,
   48.5336,      1027,
   48.5541,      1063,
   48.5745,      1007,
    48.595,       994,
   48.6155,      1058,
   48.6359,      1020,
   48.6564,       944,
   48.6769,      1040,
   48.6973,      1025,
   48.7178,       998,
   48.7382,      1004,
   48.7587,      1030,
   48.7792,      1010,
   48.7996,       999,
   48.8201,      1043,
   48.8406,      1037,
    48.861,      1018,
   48.8815,      1002,
    48.902,      1014,
   48.9224,      1041,
   48.9429,      1017,
   48.9634,      1009,
   48.9838,       968,
   49.0043,      1006,
   49.0247,       977,
   49.0452,       957,
   49.0657,      1045,
   49.0861,      1016,
   49.1066,      1045,
   49.1271,      1020,
   49.1475,       991,
    49.168,       959,
   49.1885,      1033,
   49.2089,      1016,
   49.2294,       947,
   49.2498,      1007,
   49.2703,      1006,
   49.2908,      1051,
   49.3112,      1019,
   49.3317,      1000,
   49.3522,       980,
   49.3726,       990,
   49.3931,      1004,
   49.4136,       975,
    49.434,      1045,
   49.4545,      1039,
   49.4749,      1034,
   49.4954,      1043,
   49.5159,      1021,
   49.5363,      1020,
   49.5568,      1009,
   49.5773,      1022,
   49.5977,       994,
   49.6182,      1001,
   49.6387,      1012,
   49.6591,      1040,
   49.6796,      1031,
   49.7001,      1063,
   49.7205,      1019,
    49.741,      1065,
   49.7614,      1000,
   49.7819,      1061,
   49.8024,      1016,
   49.8228,      1088,
   49.8433,      1060,
   49.8638,      1042,
   49.8842,      1001,
   49.9047,      1095,
   49.9252,      1043,
   49.9456,      1007,
   49.9661,       955,
   49.9865,      1045,
    50.007,      1037,
   50.0275,       974,
   50.0479,       988,
   50.0684,       998,
   50.0889,      1045,
   50.1093,      1044,
   50.1298,      1015,
   50.1503,       978,
   50.1707,      1044,
   50.1912,       987,
   50.2116,       982,
   50.2321,       998,
   50.2526,       998,
    50.273,       981,
   50.2935,      1032,
    50.314,      1016,
   50.3344,      1050,
   50.3549,       971,
   50.3754,       959,
   50.3958,      1045,
   50.4163,      1045,
   50.4368,      1002,
   50.4572,       999,
   50.4777,      1019,
   50.4981,       964,
   50.5186,       966,
   50.5391,       969,
   50.5595,      1020,
     50.58,       976,
   50.6005,       946,
   50.6209,       976,
   50.6414,       969,
   50.6619,       990,
   50.6823,       966,
   50.7028,       962,
   50.7232,       998,
   50.7437,       982,
   50.7642,      1065,
   50.7846,      1004,
   50.8051,      1030,
   50.8256,      1006,
    50.846,       977,
   50.8665,      1055,
    50.887,       979,
   50.9074,      1056,
   50.9279,       995,
   50.9484,      1027,
   50.9688,      1017,
   50.9893,      1040,
   51.0097,       969,
   51.0302,      1044,
   51.0507,      1084,
   51.0711,      1053,
   51.0916,       989,
   51.1121,      1067,
   51.1325,       956,
    51.153,       998,
   51.1735,      1019,
   51.1939,       991,
   51.2144,      1002,
   51.2348,      1012,
   51.2553,      1030,
   51.2758,       957,
   51.2962,      1036,
   51.3167,       952,
   51.3372,       966,
   51.3576,       954,
   51.3781,      1007,
   51.3986,      1003,
    51.419,       981,
   51.4395,       961,
   51.4599,       937,
   51.4804,       983,
   51.5009,       960,
   51.5213,      1003,
   51.5418,       981,
   51.5623,      1011,
   51.5827,       942,
   51.6032,      1019,
   51.6237,       965,
   51.6441,       972,
   51.6646,       920,
   51.6851,       986,
   51.7055,       936,
    51.726,       995,
   51.7464,       973,
   51.7669,       968,
   51.7874,       999,
   51.8078,       919,
   51.8283,       924,
   51.8488,       932,
   51.8692,       961,
   51.8897,       920,
   51.9102,       983,
   51.9306,       996,
   51.9511,      1041,
   51.9715,       941,
    51.992,       930,
   52.0125,       963,
   52.0329,       993,
   52.0534,       934,
   52.0739,       967,
   52.0943,       983,
   52.1148,      1007,
   52.1353,       933,
   52.1557,      1018,
   52.1762,       916,
   52.1966,       990,
   52.2171,       987,
   52.2376,       909,
    52.258,       942,
   52.2785,       952,
    52.299,       996,
   52.3194,       995,
   52.3399,       937,
   52.3604,      1024,
   52.3808,       898,
   52.4013,       972,
   52.4218,       958,
   52.4422,       920,
   52.4627,       974,
   52.4831,       877,
   52.5036,      1018,
   52.5241,       960,
   52.5445,       914,
    52.565,       975,
   52.5855,       934,
   52.6059,       938,
   52.6264,       978,
   52.6469,       979,
   52.6673,       953,
   52.6878,       918,
   52.7082,       921,
   52.7287,       957,
   52.7492,       953,
   52.7696,       943,
   52.7901,      1004,
   52.8106,       977,
    52.831,       945,
   52.8515,       986,
    52.872,       957,
   52.8924,      1018,
   52.9129,      1015,
   52.9333,       958,
   52.9538,       999,
   52.9743,       990,
   52.9947,       935,
   53.0152,       943,
   53.0357,       902,
   53.0561,       912,
   53.0766,       983,
   53.0971,       999,
   53.1175,       995,
    53.138,       969,
   53.1585,       985,
   53.1789,       923,
   53.1994,       978,
   53.2198,       919,
   53.2403,       940,
   53.2608,       953,
   53.2812,       998,
   53.3017,      1022,
   53.3222,       973,
   53.3426,       955,
   53.3631,       944,
   53.3836,       936,
    53.404,       938,
   53.4245,       917,
   53.4449,       961,
   53.4654,       916,
   53.4859,       894,
   53.5063,       950,
   53.5268,       941,
   53.5473,       955,
   53.5677,       979,
   53.5882,       906,
   53.6087,       969,
   53.6291,      1016,
   53.6496,      1006,
     53.67,      1010,
   53.6905,       979,
    53.711,       952,
   53.7314,       939,
   53.7519,       932,
   53.7724,       909,
   53.7928,       910,
   53.8133,      1001,
   53.8338,       941,
   53.8542,       957,
   53.8747,      1012,
   53.8952,      1000,
   53.9156,       952,
   53.9361,       939,
   53.9565,       987,
    53.977,       942,
   53.9975,       960,
   54.0179,       920,
   54.0384,       998,
   54.0589,       979,
   54.0793,      1000,
   54.0998,      1000,
   54.1203,       874,
   54.1407,       926,
   54.1612,       916,
   54.1816,       935,
   54.2021,       951,
   54.2226,       952,
    54.243,       949,
   54.2635,       923,
    54.284,       948,
   54.3044,       925,
   54.3249,       935,
   54.3454,       944,
   54.3658,       945,
   54.3863,       933,
   54.4067,       949,
   54.4272,       909,
   54.4477,       944,
   54.4681,       965,
   54.4886,       949,
   54.5091,       987,
   54.5295,       936,
     54.55,       915,
   54.5705,       898,
   54.5909,      1010,
   54.6114,       922,
   54.6319,       928,
   54.6523,       951,
   54.6728,       983,
   54.6932,       899,
   54.7137,       866,
   54.7342,       922,
   54.7546,       973,
   54.7751,       916,
   54.7956,       949,
    54.816,      1007,
   54.8365,       943,
    54.857,       984,
   54.8774,       970,
   54.8979,      1013,
   54.9183,       984,
   54.9388,       927,
   54.9593,       904,
   54.9797,       921,
   55.0002,       909,
   55.0207,       929,
   55.0411,       972,
   55.0616,       947,
   55.0821,       915,
   55.1025,       950,
    55.123,       956,
   55.1434,       934,
   55.1639,       937,
   55.1844,       927,
   55.2048,       952,
   55.2253,       949,
   55.2458,       928,
   55.2662,       958,
   55.2867,       923,
   55.3072,       938,
   55.3276,       961,
   55.3481,       922,
   55.3686,       898,
    55.389,       972,
   55.4095,       947,
   55.4299,       923,
   55.4504,      1000,
   55.4709,       930,
   55.4913,       947,
   55.5118,       866,
   55.5323,       978,
   55.5527,       954,
   55.5732,       980,
   55.5937,       934,
   55.6141,       900,
   55.6346,       937,
    55.655,       924,
   55.6755,       934,
    55.696,       993,
   55.7164,       894,
   55.7369,       970,
   55.7574,       913,
   55.7778,       959,
   55.7983,       885,
   55.8188,       924,
   55.8392,       848,
   55.8597,       907,
   55.8801,       950,
   55.9006,       928,
   55.9211,       949,
   55.9415,       930,
    55.962,       951,
   55.9825,       891,
   56.0029,       944,
   56.0234,       923,
   56.0439,      1010,
   56.0643,       973,
   56.0848,       938,
   56.1053,       902,
   56.1257,       900,
   56.1462,       948,
   56.1666,       959,
   56.1871,       971,
   56.2076,       956,
    56.228,       907,
   56.2485,       920,
    56.269,       925,
   56.2894,       897,
   56.3099,       930,
   56.3304,       869,
   56.3508,       910,
   56.3713,       950,
   56.3917,       973,
   56.4122,       916,
   56.4327,       923,
   56.4531,       929,
   56.4736,       925,
   56.4941,       929,
   56.5145,       928,
    56.535,       899,
   56.5555,       925,
   56.5759,       893,
   56.5964,       950,
   56.6168,       944,
   56.6373,       894,
   56.6578,       972,
   56.6782,       935,
   56.6987,       942,
   56.7192,       948,
   56.7396,       961,
   56.7601,       944,
   56.7806,       919,
    56.801,       945,
   56.8215,       877,
    56.842,       916,
   56.8624,       959,
   56.8829,       965,
   56.9033,       945,
   56.9238,       877,
   56.9443,       917,
   56.9647,       928,
   56.9852,       934,
   57.0057,       957,
   57.0261,       862,
   57.0466,       927,
   57.0671,       910,
   57.0875,       932,
    57.108,       922,
   57.1284,       922,
   57.1489,       922,
   57.1694,       931,
   57.1898,       941,
   57.2103,       938,
   57.2308,       960,
   57.2512,       878,
   57.2717,       919,
   57.2922,       945,
   57.3126,       939,
   57.3331,       919,
   57.3535,       890,
    57.374,       875,
   57.3945,       900,
   57.4149,       906,
   57.4354,       919,
   57.4559,       895,
   57.4763,       893,
   57.4968,       929,
   57.5173,       916,
   57.5377,       880,
   57.5582,       972,
   57.5787,       890,
   57.5991,       964,
   57.6196,       934,
     57.64,       891,
   57.6605,       914,
    57.681,       898,
   57.7014,       908,
   57.7219,       959,
   57.7424,       946,
   57.7628,       914,
   57.7833,       924,
   57.8038,       927,
   57.8242,       951,
   57.8447,       984,
   57.8651,       944,
   57.8856,       896,
   57.9061,       932,
   57.9265,       922,
    57.947,       960,
   57.9675,       926,
   57.9879,       912,
   58.0084,       912,
   58.0289,       937,
   58.0493,       892,
   58.0698,       965,
   58.0902,       918,
   58.1107,       904,
   58.1312,       906,
   58.1516,       928,
   58.1721,       966,
   58.1926,       944,
    58.213,       890,
   58.2335,       945,
    58.254,       897,
   58.2744,       920,
   58.2949,       919,
   58.3154,       853,
   58.3358,       898,
   58.3563,       895,
   58.3767,       924,
   58.3972,       886,
   58.4177,       935,
   58.4381,       862,
   58.4586,       899,
   58.4791,       919,
   58.4995,       888,
     58.52,       898,
   58.5405,       914,
   58.5609,       951,
   58.5814,       914,
   58.6018,       946,
   58.6223,       843,
   58.6428,       895,
   58.6632,       928,
   58.6837,       939,
   58.7042,       913,
   58.7246,       883,
   58.7451,       934,
   58.7656,       903,
    58.786,       889,
   58.8065,       968,
   58.8269,       864,
   58.8474,       930,
   58.8679,       912,
   58.8883,       922,
   58.9088,       847,
   58.9293,       940,
   58.9497,       905,
   58.9702,       893,
   58.9907,       952,
   59.0111,       929,
   59.0316,       966,
   59.0521,       896,
   59.0725,       861,
    59.093,       935,
   59.1134,       970,
   59.1339,       974,
   59.1544,       885,
   59.1748,       892,
   59.1953,       899,
   59.2158,       901,
   59.2362,       961,
   59.2567,       987,
   59.2772,       901,
   59.2976,       895,
   59.3181,       921,
   59.3385,       876,
    59.359,       939,
   59.3795,       923,
   59.3999,       910,
   59.4204,       853,
   59.4409,       968,
   59.4613,       919,
   59.4818,       962,
   59.5023,       965,
   59.5227,       904,
   59.5432,       941,
   59.5636,       950,
   59.5841,       937,
   59.6046,       909,
    59.625,       909,
   59.6455,       927,
    59.666,       927,
   59.6864,       888,
   59.7069,       968,
   59.7274,       913,
   59.7478,       907,
   59.7683,       884,
   59.7888,       929,
   59.8092,       895,
   59.8297,       904,
   59.8501,       952,
   59.8706,       878,
   59.8911,       969,
   59.9115,       901,
    59.932,       968,
   59.9525,       916,
   59.9729,       947,
   59.9934,       923,
   60.0139,       940,
   60.0343,       920,
   60.0548,       921,
   60.0752,       966,
   60.0957,       984,
   60.1162,       941,
   60.1366,       854,
   60.1571,       934,
   60.1776,       940,
    60.198,       889,
   60.2185,       910,
    60.239,       887,
   60.2594,       915,
   60.2799,       916,
   60.3003,       990,
   60.3208,       912,
   60.3413,       923,
   60.3617,       864,
   60.3822,       905,
   60.4027,       916,
   60.4231,       885,
   60.4436,      1009,
   60.4641,       903,
   60.4845,       964,
    60.505,       919,
   60.5255,       943,
   60.5459,       901,
   60.5664,       896,
   60.5868,       892,
   60.6073,       951,
   60.6278,       919,
   60.6482,       897,
   60.6687,       891,
   60.6892,       911,
   60.7096,       893,
   60.7301,       943,
   60.7506,       922,
    60.771,       945,
   60.7915,       931,
   60.8119,       953,
   60.8324,       916,
   60.8529,       964,
   60.8733,       932,
   60.8938,       954,
   60.9143,       873,
   60.9347,       948,
   60.9552,       936,
   60.9757,       981,
   60.9961,       906,
   61.0166,       878,
    61.037,       898,
   61.0575,       922,
    61.078,       924,
   61.0984,       905,
   61.1189,       972,
   61.1394,       994,
   61.1598,       936,
   61.1803,       930,
   61.2008,       923,
   61.2212,       916,
   61.2417,       927,
   61.2622,       949,
   61.2826,       965,
   61.3031,       970,
   61.3235,       924,
    61.344,       878,
   61.3645,       962,
   61.3849,       914,
   61.4054,       941,
   61.4259,       878,
   61.4463,       986,
   61.4668,       921,
   61.4873,       964,
   61.5077,       973,
   61.5282,       931,
   61.5486,       916,
   61.5691,       954,
   61.5896,      1002,
     61.61,       965,
   61.6305,       926,
    61.651,       884,
   61.6714,       987,
   61.6919,       994,
   61.7124,       940,
   61.7328,      1018,
   61.7533,       917,
   61.7737,       957,
   61.7942,      1009,
   61.8147,       960,
   61.8351,       991,
   61.8556,       944,
   61.8761,       977,
   61.8965,       991,
    61.917,       948,
   61.9375,      1024,
   61.9579,       997,
   61.9784,       970,
   61.9989,       954,
   62.0193,      1020,
   62.0398,      1006,
   62.0602,      1025,
   62.0807,       994,
   62.1012,       963,
   62.1216,      1071,
   62.1421,      1007,
   62.1626,      1020,
    62.183,      1038,
   62.2035,      1065,
    62.224,      1010,
   62.2444,      1048,
   62.2649,      1068,
   62.2853,      1161,
   62.3058,      1148,
   62.3263,      1170,
   62.3467,      1142,
   62.3672,      1140,
   62.3877,      1203,
   62.4081,      1199,
   62.4286,      1292,
   62.4491,      1315,
   62.4695,      1387,
     62.49,      1398,
   62.5104,      1403,
   62.5309,      1516,
   62.5514,      1528,
   62.5718,      1580,
   62.5923,      1619,
   62.6128,      1707,
   62.6332,      1863,
   62.6537,      1827,
   62.6742,      1849,
   62.6946,      1978,
   62.7151,      2084,
   62.7356,      1995,
    62.756,      2063,
   62.7765,      2054,
   62.7969,      2029,
   62.8174,      2047,
   62.8379,      2063,
   62.8583,      2015,
   62.8788,      1943,
   62.8993,      1939,
   62.9197,      1995,
   62.9402,      1808,
   62.9607,      1753,
   62.9811,      1675,
   63.0016,      1644,
    63.022,      1625,
   63.0425,      1620,
    63.063,      1416,
   63.0834,      1412,
   63.1039,      1346,
   63.1244,      1307,
   63.1448,      1258,
   63.1653,      1267,
   63.1858,      1215,
   63.2062,      1204,
   63.2267,      1203,
   63.2471,      1112,
   63.2676,      1070,
   63.2881,      1145,
   63.3085,      1109,
    63.329,      1111,
   63.3495,      1060,
   63.3699,      1046,
   63.3904,      1004,
   63.4109,      1003,
   63.4313,      1010,
   63.4518,      1021,
   63.4723,      1041,
   63.4927,       997,
   63.5132,       915,
   63.5336,       959,
   63.5541,       981,
   63.5746,      1026,
    63.595,       979,
   63.6155,       992,
    63.636,       967,
   63.6564,       927,
   63.6769,       987,
   63.6974,       968,
   63.7178,       937,
   63.7383,       962,
   63.7587,       930,
   63.7792,       913,
   63.7997,       902,
   63.8201,       911,
   63.8406,       941,
   63.8611,       938,
   63.8815,       929,
    63.902,       952,
   63.9225,       955,
   63.9429,       905,
   63.9634,       870,
   63.9838,       906,
   64.0043,       934,
   64.0248,       912,
   64.0452,       981,
   64.0657,       911,
   64.0862,       961,
   64.1066,       876,
   64.1271,       896,
   64.1476,       880,
    64.168,       951,
   64.1885,       897,
    64.209,       901,
   64.2294,       938,
   64.2499,       963,
   64.2703,       893,
   64.2908,       899,
   64.3113,       964,
   64.3317,       906,
   64.3522,       920,
   64.3727,       895,
   64.3931,       905,
   64.4136,       902,
   64.4341,       902,
   64.4545,       930,
    64.475,       929,
   64.4954,       915,
   64.5159,       911,
   64.5364,       925,
   64.5568,       938,
   64.5773,       911,
   64.5978,       906,
   64.6182,       915,
   64.6387,       907,
   64.6592,       890,
   64.6796,       962,
   64.7001,       891,
   64.7206,       919,
    64.741,       938,
   64.7615,       866,
   64.7819,       897,
   64.8024,       869,
   64.8229,       912,
   64.8433,       881,
   64.8638,       942,
   64.8843,       924,
   64.9047,       856,
   64.9252,       923,
   64.9457,       911,
   64.9661,       933,
   64.9866,       898,
    65.007,       889,
   65.0275,       899,
    65.048,       857,
   65.0684,       909,
   65.0889,       866,
   65.1094,       903,
   65.1298,       902,
   65.1503,       942,
   65.1708,       870,
   65.1912,       900,
   65.2117,       867,
   65.2321,       889,
   65.2526,       870,
   65.2731,       879,
   65.2935,       927,
    65.314,       887,
   65.3345,       979,
   65.3549,       946,
   65.3754,       882,
   65.3959,       896,
   65.4163,       971,
   65.4368,       893,
   65.4573,       879,
   65.4777,       895,
   65.4982,       887,
   65.5186,       877,
   65.5391,       927,
   65.5596,       857,
     65.58,       890,
   65.6005,       891,
    65.621,       851,
   65.6414,       934,
   65.6619,       875,
   65.6824,       869,
   65.7028,       915,
   65.7233,       887,
   65.7437,       915,
   65.7642,       914,
   65.7847,       886,
   65.8051,       922,
   65.8256,       883,
   65.8461,       881,
   65.8665,       937,
    65.887,       951,
   65.9075,       838,
   65.9279,       864,
   65.9484,       870,
   65.9688,       871,
   65.9893,       878,
   66.0098,       934,
   66.0302,       847,
   66.0507,       859,
   66.0712,       872,
   66.0916,       944,
   66.1121,       880,
   66.1326,       852,
    66.153,       871,
   66.1735,       899,
    66.194,       854,
   66.2144,       900,
   66.2349,       871,
   66.2553,       896,
   66.2758,       917,
   66.2963,       892,
   66.3167,       866,
   66.3372,       845,
   66.3577,       835,
   66.3781,       868,
   66.3986,       868,
   66.4191,       929,
   66.4395,       819,
     66.46,       893,
   66.4804,       905,
   66.5009,       883,
   66.5214,       883,
   66.5418,       839,
   66.5623,       877,
   66.5828,       883,
   66.6032,       897,
   66.6237,       954,
   66.6442,       853,
   66.6646,       945,
   66.6851,       856,
   66.7055,       862,
    66.726,       881,
   66.7465,       867,
   66.7669,       870,
   66.7874,       837,
   66.8079,       870,
   66.8283,       848,
   66.8488,       890,
   66.8693,       926,
   66.8897,       855,
   66.9102,       854,
   66.9307,       866,
   66.9511,       838,
   66.9716,       871,
    66.992,       858,
   67.0125,       895,
    67.033,       822,
   67.0534,       901,
   67.0739,       847,
   67.0944,       879,
   67.1148,       922,
   67.1353,       884,
   67.1558,       905,
   67.1762,       901,
   67.1967,       873,
   67.2171,       898,
   67.2376,       850,
   67.2581,       865,
   67.2785,       828,
    67.299,       863,
   67.3195,       853,
   67.3399,       852,
   67.3604,       821,
   67.3809,       863,
   67.4013,       862,
   67.4218,       864,
   67.4422,       850,
   67.4627,       939,
   67.4832,       840,
   67.5036,       824,
   67.5241,       867,
   67.5446,       909,
    67.565,       823,
   67.5855,       894,
    67.606,       881,
   67.6264,       857,
   67.6469,       852,
   67.6674,       870,
   67.6878,       851,
   67.7083,       875,
   67.7287,       824,
   67.7492,       892,
   67.7697,       830,
   67.7901,       802,
   67.8106,       822,
   67.8311,       808,
   67.8515,       854,
    67.872,       816,
   67.8925,       884,
   67.9129,       859,
   67.9334,       825,
   67.9538,       857,
   67.9743,       817,
   67.9948,       874,
   68.0152,       871,
   68.0357,       901,
   68.0562,       818,
   68.0766,       851,
   68.0971,       916,
   68.1176,       920,
    68.138,       851,
   68.1585,       886,
   68.1789,       903,
   68.1994,       848,
   68.2199,       866,
   68.2403,       871,
   68.2608,       834,
   68.2813,       820,
   68.3017,       850,
   68.3222,       810,
   68.3427,       818,
   68.3631,       842,
   68.3836,       891,
   68.4041,       830,
   68.4245,       780,
    68.445,       855,
   68.4654,       825,
   68.4859,       827,
   68.5064,       799,
   68.5268,       871,
   68.5473,       821,
   68.5678,       836,
   68.5882,       857,
   68.6087,       832,
   68.6292,       867,
   68.6496,       863,
   68.6701,       832,
   68.6905,       805,
    68.711,       793,
   68.7315,       878,
   68.7519,       797,
   68.7724,       830,
   68.7929,       863,
   68.8133,       830,
   68.8338,       843,
   68.8543,       843,
   68.8747,       840,
   68.8952,       846,
   68.9156,       800,
   68.9361,       826,
   68.9566,       831,
    68.977,       843,
   68.9975,       864,
    69.018,       818,
   69.0384,       860,
   69.0589,       822,
   69.0794,       806,
   69.0998,       837,
   69.1203,       871,
   69.1408,       795,
   69.1612,       812,
   69.1817,       803,
   69.2021,       840,
   69.2226,       849,
   69.2431,       857,
   69.2635,       862,
    69.284,       843,
   69.3045,       813,
   69.3249,       863,
   69.3454,       798,
   69.3659,       787,
   69.3863,       825,
   69.4068,       872,
   69.4272,       825,
   69.4477,       826,
   69.4682,       817,
   69.4886,       837,
   69.5091,       778,
   69.5296,       821,
     69.55,       881,
   69.5705,       814,
    69.591,       849,
   69.6114,       831,
   69.6319,       814,
   69.6523,       818,
   69.6728,       880,
   69.6933,       788,
   69.7137,       797,
   69.7342,       821,
   69.7547,       847,
   69.7751,       803,
   69.7956,       814,
   69.8161,       853,
   69.8365,       842,
    69.857,       774,
   69.8775,       900,
   69.8979,       819,
   69.9184,       900,
   69.9388,       807,
   69.9593,       845,
   69.9798,       858,
   70.0002,       790,
   70.0207,       802,
   70.0412,       805,
   70.0616,       852,
   70.0821,       829,
   70.1026,       764,
    70.123,       816,
   70.1435,       836,
   70.1639,       790,
   70.1844,       819,
   70.2049,       829,
   70.2253,       807,
   70.2458,       839,
   70.2663,       825,
   70.2867,       795,
   70.3072,       835,
   70.3277,       861,
   70.3481,       872,
   70.3686,       844,
    70.389,       799,
   70.4095,       804,
     70.43,       866,
   70.4504,       856,
   70.4709,       819,
   70.4914,       840,
   70.5118,       765,
   70.5323,       836,
   70.5528,       807,
   70.5732,       823,
   70.5937,       854,
   70.6142,       822,
   70.6346,       810,
   70.6551,       772,
   70.6755,       768,
    70.696,       800,
   70.7165,       784,
   70.7369,       807,
   70.7574,       806,
   70.7779,       750,
   70.7983,       845,
   70.8188,       798,
   70.8393,       840,
   70.8597,       876,
   70.8802,       839,
   70.9006,       814,
   70.9211,       820,
   70.9416,       787,
    70.962,       793,
   70.9825,       809,
    71.003,       818,
   71.0234,       815,
   71.0439,       829,
   71.0644,       806,
   71.0848,       792,
   71.1053,       815,
   71.1257,       810,
   71.1462,       852,
   71.1667,       786,
   71.1871,       819,
   71.2076,       801,
   71.2281,       846,
   71.2485,       854,
    71.269,       763,
   71.2895,       854,
   71.3099,       871,
   71.3304,       804,
   71.3509,       805,
   71.3713,       834,
   71.3918,       772,
   71.4122,       839,
   71.4327,       826,
   71.4532,       827,
   71.4736,       824,
   71.4941,       779,
   71.5146,       761,
    71.535,       781,
   71.5555,       812,
    71.576,       772,
   71.5964,       801,
   71.6169,       796,
   71.6373,       783,
   71.6578,       748,
   71.6783,       819,
   71.6987,       825,
   71.7192,       791,
   71.7397,       806,
   71.7601,       759,
   71.7806,       774,
   71.8011,       821,
   71.8215,       774,
    71.842,       842,
   71.8624,       824,
   71.8829,       765,
   71.9034,       799,
   71.9238,       775,
   71.9443,       779,
   71.9648,       820,
   71.9852,       801,
   72.0057,       776,
   72.0262,       803,
   72.0466,       865,
   72.0671,       841,
   72.0876,       819,
    72.108,       793,
   72.1285,       815,
   72.1489,       759,
   72.1694,       855,
   72.1899,       795,
   72.2103,       791,
   72.2308,       821,
   72.2513,       805,
   72.2717,       780,
   72.2922,       783,
   72.3127,       809,
   72.3331,       832,
   72.3536,       825,
    72.374,       812,
   72.3945,       809,
    72.415,       836,
   72.4354,       786,
   72.4559,       778,
   72.4764,       788,
   72.4968,       804,
   72.5173,       782,
   72.5378,       809,
   72.5582,       821,
   72.5787,       799,
   72.5991,       837,
   72.6196,       840,
   72.6401,       851,
   72.6605,       785,
    72.681,       838,
   72.7015,       821,
   72.7219,       795,
   72.7424,       761,
   72.7629,       803,
   72.7833,       811,
   72.8038,       854,
   72.8243,       832,
   72.8447,       853,
   72.8652,       772,
   72.8856,       774,
   72.9061,       759,
   72.9266,       827,
    72.947,       804,
   72.9675,       822,
    72.988,       797,
   73.0084,       794,
   73.0289,       821,
   73.0494,       781,
   73.0698,       791,
   73.0903,       788,
   73.1107,       772,
   73.1312,       805,
   73.1517,       768,
   73.1721,       784,
   73.1926,       765,
   73.2131,       745,
   73.2335,       786,
    73.254,       773,
   73.2745,       773,
   73.2949,       814,
   73.3154,       785,
   73.3358,       777,
   73.3563,       814,
   73.3768,       790,
   73.3972,       816,
   73.4177,       817,
   73.4382,       778,
   73.4586,       819,
   73.4791,       820,
   73.4996,       777,
     73.52,       756,
   73.5405,       788,
    73.561,       818,
   73.5814,       847,
   73.6019,       732,
   73.6223,       794,
   73.6428,       795,
   73.6633,       820,
   73.6837,       831,
   73.7042,       801,
   73.7247,       797,
   73.7451,       808,
   73.7656,       819,
   73.7861,       790,
   73.8065,       788,
    73.827,       799,
   73.8474,       778,
   73.8679,       827,
   73.8884,       782,
   73.9088,       802,
   73.9293,       780,
   73.9498,       756,
   73.9702,       818,
   73.9907,       787,
   74.0112,       779,
   74.0316,       737,
   74.0521,       756,
   74.0725,       790,
    74.093,       832,
   74.1135,       794,
   74.1339,       761,
   74.1544,       764,
   74.1749,       865,
   74.1953,       808,
   74.2158,       821,
   74.2363,       759,
   74.2567,       740,
   74.2772,       819,
   74.2977,       780,
   74.3181,       790,
   74.3386,       767,
    74.359,       814,
   74.3795,       800,
      74.4,       790,
   74.4204,       758,
   74.4409,       804,
   74.4614,       792,
   74.4818,       799,
   74.5023,       790,
   74.5228,       864,
   74.5432,       793,
   74.5637,       782,
   74.5841,       810,
   74.6046,       833,
   74.6251,       823,
   74.6455,       814,
    74.666,       806,
   74.6865,       850,
   74.7069,       853,
   74.7274,       824,
   74.7479,       788,
   74.7683,       827,
   74.7888,       846,
   74.8092,       813,
   74.8297,       839,
   74.8502,       854,
   74.8706,       822,
   74.8911,       873,
   74.9116,       827,
    74.932,       883,
   74.9525,       905,
    74.973,       926,
   74.9934,       902,
   75.0139,       933,
   75.0344,       891,
   75.0548,       947,
   75.0753,       950,
   75.0957,      1006,
   75.1162,      1038,
   75.1367,      1026,
   75.1571,       986,
   75.1776,      1015,
   75.1981,      1000,
   75.2185,      1034,
    75.239,      1037,
   75.2595,      1021,
   75.2799,      1051,
   75.3004,      1134,
   75.3208,      1072,
   75.3413,      1054,
   75.3618,       998,
   75.3822,      1069,
   75.4027,      1057,
   75.4232,      1012,
   75.4436,      1067,
   75.4641,       998,
   75.4846,      1016,
    75.505,       985,
   75.5255,       960,
   75.5459,       931,
   75.5664,       936,
   75.5869,       926,
   75.6073,       950,
   75.6278,       877,
   75.6483,       882,
   75.6687,       856,
   75.6892,       858,
   75.7097,       873,
   75.7301,       921,
   75.7506,       860,
   75.7711,       849,
   75.7915,       862,
    75.812,       820,
   75.8324,       796,
   75.8529,       845,
   75.8734,       806,
   75.8938,       826,
   75.9143,       813,
   75.9348,       824,
   75.9552,       781,
   75.9757,       745,
   75.9962,       801,
   76.0166,       791,
   76.0371,       746,
   76.0575,       809,
    76.078,       801,
   76.0985,       768,
   76.1189,       796,
   76.1394,       774,
   76.1599,       741,
   76.1803,       799,
   76.2008,       803,
   76.2213,       806,
   76.2417,       790,
   76.2622,       809,
   76.2826,       751,
   76.3031,       718,
   76.3236,       769,
    76.344,       797,
   76.3645,       806,
    76.385,       741,
   76.4054,       790,
   76.4259,       806,
   76.4464,       736,
   76.4668,       768,
   76.4873,       766,
   76.5078,       774,
   76.5282,       754,
   76.5487,       794,
   76.5691,       721,
   76.5896,       731,
   76.6101,       809,
   76.6305,       772,
    76.651,       749,
   76.6715,       782,
   76.6919,       770,
   76.7124,       741,
   76.7329,       775,
   76.7533,       729,
   76.7738,       724,
   76.7942,       750,
   76.8147,       744,
   76.8352,       742,
   76.8556,       765,
   76.8761,       734,
   76.8966,       742,
    76.917,       770,
   76.9375,       757,
    76.958,       742,
   76.9784,       734,
   76.9989,       773,
   77.0193,       779,
   77.0398,       751,
   77.0603,       771,
   77.0807,       732,
   77.1012,       802,
   77.1217,       761,
   77.1421,       789,
   77.1626,       778,
   77.1831,       703,
   77.2035,       756,
    77.224,       718,
   77.2445,       756,
   77.2649,       735,
   77.2854,       757,
   77.3058,       722,
   77.3263,       721,
   77.3468,       717,
   77.3672,       777,
   77.3877,       754,
   77.4082,       749,
   77.4286,       729,
   77.4491,       702,
   77.4696,       779,
     77.49,       733,
   77.5105,       788,
   77.5309,       675,
   77.5514,       737,
   77.5719,       751,
   77.5923,       804,
   77.6128,       758,
   77.6333,       748,
   77.6537,       747,
   77.6742,       724,
   77.6947,       781,
   77.7151,       725,
   77.7356,       768,
    77.756,       763,
   77.7765,       746,
    77.797,       736,
   77.8174,       712,
   77.8379,       744,
   77.8584,       788,
   77.8788,       737,
   77.8993,       765,
   77.9198,       748,
   77.9402,       771,
   77.9607,       700,
   77.9812,       741,
   78.0016,       779,
   78.0221,       758,
   78.0425,       751,
    78.063,       726,
   78.0835,       727,
   78.1039,       737,
   78.1244,       773,
   78.1449,       804,
   78.1653,       794,
   78.1858,       737,
   78.2063,       755,
   78.2267,       767,
   78.2472,       739,
   78.2676,       806,
   78.2881,       726,
   78.3086,       674,
    78.329,       774,
   78.3495,       719,
     78.37,       765,
   78.3904,       778,
   78.4109,       795,
   78.4314,       753,
   78.4518,       728,
   78.4723,       747,
   78.4928,       726,
   78.5132,       729,
   78.5337,       773,
   78.5541,       751,
   78.5746,       755,
   78.5951,       779,
   78.6155,       725,
    78.636,       733,
   78.6565,       798,
   78.6769,       783,
   78.6974,       770,
   78.7179,       767,
   78.7383,       726,
   78.7588,       749,
   78.7792,       759,
   78.7997,       810,
   78.8202,       766,
   78.8406,       777,
   78.8611,       835,
   78.8816,       811,
    78.902,       820,
   78.9225,       792,
    78.943,       768,
   78.9634,       815,
   78.9839,       784,
   79.0043,       785,
   79.0248,       882,
   79.0453,       843,
   79.0657,       850,
   79.0862,       841,
   79.1067,       918,
   79.1271,       912,
   79.1476,       941,
   79.1681,       947,
   79.1885,       924,
    79.209,       923,
   79.2295,       926,
   79.2499,       954,
   79.2704,       933,
   79.2908,       951,
   79.3113,       915,
   79.3318,       940,
   79.3522,       928,
   79.3727,       954,
   79.3932,       890,
   79.4136,       889,
   79.4341,       932,
   79.4546,       934,
    79.475,       915,
   79.4955,       951,
   79.5159,       831,
   79.5364,       862,
   79.5569,       826,
   79.5773,       819,
   79.5978,       836,
   79.6183,       800,
   79.6387,       790,
   79.6592,       754,
   79.6797,       863,
   79.7001,       754,
   79.7206,       752,
    79.741,       809,
   79.7615,       724,
    79.782,       762,
   79.8024,       711,
   79.8229,       712,
   79.8434,       750,
   79.8638,       705,
   79.8843,       714,
   79.9048,       762,
   79.9252,       715,
   79.9457,       738,
   79.9662,       792,
   79.9866,       781,
   80.0071,       728,
